# Pulseq sequence file
# Created by MATLAB mr toolbox

[VERSION]
major 1
minor 4
revision 1

[DEFINITIONS]
AdcRasterTime 1e-07 
BlockDurationRaster 1e-05 
FOV 0.24 0.24 0.03 
GradientRasterTime 1e-05 
Name OSSI 
RadiofrequencyRasterTime 1e-06 
TotalDuration 192 

# Format of blocks:
# NUM DUR RF  GX  GY  GZ  ADC  EXT
[BLOCKS]
    1 408   1   0   0   1  0  1
    2  90   0   0   0   2  0  0
    3 3170   0   3   4   0  0  0
    4  90   0   0   0   5  0  0
    5 242   0   0   0   0  0  0
    6 408   2   0   0   1  0  1
    7  90   0   0   0   2  0  0
    8 3170   0   3   4   0  0  0
    9  90   0   0   0   5  0  0
   10 242   0   0   0   0  0  0
   11 408   3   0   0   1  0  1
   12  90   0   0   0   2  0  0
   13 3170   0   3   4   0  0  0
   14  90   0   0   0   5  0  0
   15 242   0   0   0   0  0  0
   16 408   4   0   0   1  0  1
   17  90   0   0   0   2  0  0
   18 3170   0   3   4   0  0  0
   19  90   0   0   0   5  0  0
   20 242   0   0   0   0  0  0
   21 408   5   0   0   1  0  1
   22  90   0   0   0   2  0  0
   23 3170   0   3   4   0  0  0
   24  90   0   0   0   5  0  0
   25 242   0   0   0   0  0  0
   26 408   6   0   0   1  0  1
   27  90   0   0   0   2  0  0
   28 3170   0   3   4   0  0  0
   29  90   0   0   0   5  0  0
   30 242   0   0   0   0  0  0
   31 408   7   0   0   1  0  1
   32  90   0   0   0   2  0  0
   33 3170   0   3   4   0  0  0
   34  90   0   0   0   5  0  0
   35 242   0   0   0   0  0  0
   36 408   8   0   0   1  0  1
   37  90   0   0   0   2  0  0
   38 3170   0   3   4   0  0  0
   39  90   0   0   0   5  0  0
   40 242   0   0   0   0  0  0
   41 408   9   0   0   1  0  1
   42  90   0   0   0   2  0  0
   43 3170   0   3   4   0  0  0
   44  90   0   0   0   5  0  0
   45 242   0   0   0   0  0  0
   46 408  10   0   0   1  0  1
   47  90   0   0   0   2  0  0
   48 3170   0   3   4   0  0  0
   49  90   0   0   0   5  0  0
   50 242   0   0   0   0  0  0
   51 408   1   0   0   1  0  1
   52  90   0   0   0   6  0  0
   53 3170   0   3   4   0  0  0
   54  90   0   0   0   7  0  0
   55 242   0   0   0   0  0  0
   56 408   2   0   0   1  0  1
   57  90   0   0   0   6  0  0
   58 3170   0   3   4   0  0  0
   59  90   0   0   0   7  0  0
   60 242   0   0   0   0  0  0
   61 408   3   0   0   1  0  1
   62  90   0   0   0   6  0  0
   63 3170   0   3   4   0  0  0
   64  90   0   0   0   7  0  0
   65 242   0   0   0   0  0  0
   66 408   4   0   0   1  0  1
   67  90   0   0   0   6  0  0
   68 3170   0   3   4   0  0  0
   69  90   0   0   0   7  0  0
   70 242   0   0   0   0  0  0
   71 408   5   0   0   1  0  1
   72  90   0   0   0   6  0  0
   73 3170   0   3   4   0  0  0
   74  90   0   0   0   7  0  0
   75 242   0   0   0   0  0  0
   76 408   6   0   0   1  0  1
   77  90   0   0   0   6  0  0
   78 3170   0   3   4   0  0  0
   79  90   0   0   0   7  0  0
   80 242   0   0   0   0  0  0
   81 408   7   0   0   1  0  1
   82  90   0   0   0   6  0  0
   83 3170   0   3   4   0  0  0
   84  90   0   0   0   7  0  0
   85 242   0   0   0   0  0  0
   86 408   8   0   0   1  0  1
   87  90   0   0   0   6  0  0
   88 3170   0   3   4   0  0  0
   89  90   0   0   0   7  0  0
   90 242   0   0   0   0  0  0
   91 408   9   0   0   1  0  1
   92  90   0   0   0   6  0  0
   93 3170   0   3   4   0  0  0
   94  90   0   0   0   7  0  0
   95 242   0   0   0   0  0  0
   96 408  10   0   0   1  0  1
   97  90   0   0   0   6  0  0
   98 3170   0   3   4   0  0  0
   99  90   0   0   0   7  0  0
  100 242   0   0   0   0  0  0
  101 408   1   0   0   1  0  1
  102  90   0   0   0   8  0  0
  103 3170   0   3   4   0  0  0
  104  90   0   0   0   9  0  0
  105 242   0   0   0   0  0  0
  106 408   2   0   0   1  0  1
  107  90   0   0   0   8  0  0
  108 3170   0   3   4   0  0  0
  109  90   0   0   0   9  0  0
  110 242   0   0   0   0  0  0
  111 408   3   0   0   1  0  1
  112  90   0   0   0   8  0  0
  113 3170   0   3   4   0  0  0
  114  90   0   0   0   9  0  0
  115 242   0   0   0   0  0  0
  116 408   4   0   0   1  0  1
  117  90   0   0   0   8  0  0
  118 3170   0   3   4   0  0  0
  119  90   0   0   0   9  0  0
  120 242   0   0   0   0  0  0
  121 408   5   0   0   1  0  1
  122  90   0   0   0   8  0  0
  123 3170   0   3   4   0  0  0
  124  90   0   0   0   9  0  0
  125 242   0   0   0   0  0  0
  126 408   6   0   0   1  0  1
  127  90   0   0   0   8  0  0
  128 3170   0   3   4   0  0  0
  129  90   0   0   0   9  0  0
  130 242   0   0   0   0  0  0
  131 408   7   0   0   1  0  1
  132  90   0   0   0   8  0  0
  133 3170   0   3   4   0  0  0
  134  90   0   0   0   9  0  0
  135 242   0   0   0   0  0  0
  136 408   8   0   0   1  0  1
  137  90   0   0   0   8  0  0
  138 3170   0   3   4   0  0  0
  139  90   0   0   0   9  0  0
  140 242   0   0   0   0  0  0
  141 408   9   0   0   1  0  1
  142  90   0   0   0   8  0  0
  143 3170   0   3   4   0  0  0
  144  90   0   0   0   9  0  0
  145 242   0   0   0   0  0  0
  146 408  10   0   0   1  0  1
  147  90   0   0   0   8  0  0
  148 3170   0   3   4   0  0  0
  149  90   0   0   0   9  0  0
  150 242   0   0   0   0  0  0
  151 408   1   0   0   1  0  1
  152  90   0   0   0  10  0  0
  153 3170   0   3   4   0  0  0
  154  90   0   0   0  11  0  0
  155 242   0   0   0   0  0  0
  156 408   2   0   0   1  0  1
  157  90   0   0   0  10  0  0
  158 3170   0   3   4   0  0  0
  159  90   0   0   0  11  0  0
  160 242   0   0   0   0  0  0
  161 408   3   0   0   1  0  1
  162  90   0   0   0  10  0  0
  163 3170   0   3   4   0  0  0
  164  90   0   0   0  11  0  0
  165 242   0   0   0   0  0  0
  166 408   4   0   0   1  0  1
  167  90   0   0   0  10  0  0
  168 3170   0   3   4   0  0  0
  169  90   0   0   0  11  0  0
  170 242   0   0   0   0  0  0
  171 408   5   0   0   1  0  1
  172  90   0   0   0  10  0  0
  173 3170   0   3   4   0  0  0
  174  90   0   0   0  11  0  0
  175 242   0   0   0   0  0  0
  176 408   6   0   0   1  0  1
  177  90   0   0   0  10  0  0
  178 3170   0   3   4   0  0  0
  179  90   0   0   0  11  0  0
  180 242   0   0   0   0  0  0
  181 408   7   0   0   1  0  1
  182  90   0   0   0  10  0  0
  183 3170   0   3   4   0  0  0
  184  90   0   0   0  11  0  0
  185 242   0   0   0   0  0  0
  186 408   8   0   0   1  0  1
  187  90   0   0   0  10  0  0
  188 3170   0   3   4   0  0  0
  189  90   0   0   0  11  0  0
  190 242   0   0   0   0  0  0
  191 408   9   0   0   1  0  1
  192  90   0   0   0  10  0  0
  193 3170   0   3   4   0  0  0
  194  90   0   0   0  11  0  0
  195 242   0   0   0   0  0  0
  196 408  10   0   0   1  0  1
  197  90   0   0   0  10  0  0
  198 3170   0   3   4   0  0  0
  199  90   0   0   0  11  0  0
  200 242   0   0   0   0  0  0
  201 408   1   0   0   1  0  1
  202  90   0   0   0  12  0  0
  203 3170   0   3   4   0  0  0
  204  90   0   0   0  13  0  0
  205 242   0   0   0   0  0  0
  206 408   2   0   0   1  0  1
  207  90   0   0   0  12  0  0
  208 3170   0   3   4   0  0  0
  209  90   0   0   0  13  0  0
  210 242   0   0   0   0  0  0
  211 408   3   0   0   1  0  1
  212  90   0   0   0  12  0  0
  213 3170   0   3   4   0  0  0
  214  90   0   0   0  13  0  0
  215 242   0   0   0   0  0  0
  216 408   4   0   0   1  0  1
  217  90   0   0   0  12  0  0
  218 3170   0   3   4   0  0  0
  219  90   0   0   0  13  0  0
  220 242   0   0   0   0  0  0
  221 408   5   0   0   1  0  1
  222  90   0   0   0  12  0  0
  223 3170   0   3   4   0  0  0
  224  90   0   0   0  13  0  0
  225 242   0   0   0   0  0  0
  226 408   6   0   0   1  0  1
  227  90   0   0   0  12  0  0
  228 3170   0   3   4   0  0  0
  229  90   0   0   0  13  0  0
  230 242   0   0   0   0  0  0
  231 408   7   0   0   1  0  1
  232  90   0   0   0  12  0  0
  233 3170   0   3   4   0  0  0
  234  90   0   0   0  13  0  0
  235 242   0   0   0   0  0  0
  236 408   8   0   0   1  0  1
  237  90   0   0   0  12  0  0
  238 3170   0   3   4   0  0  0
  239  90   0   0   0  13  0  0
  240 242   0   0   0   0  0  0
  241 408   9   0   0   1  0  1
  242  90   0   0   0  12  0  0
  243 3170   0   3   4   0  0  0
  244  90   0   0   0  13  0  0
  245 242   0   0   0   0  0  0
  246 408  10   0   0   1  0  1
  247  90   0   0   0  12  0  0
  248 3170   0   3   4   0  0  0
  249  90   0   0   0  13  0  0
  250 242   0   0   0   0  0  0
  251 408   1   0   0   1  0  1
  252  90   0   0   0  13  0  0
  253 3170   0   3   4   0  0  0
  254  90   0   0   0  12  0  0
  255 242   0   0   0   0  0  0
  256 408   2   0   0   1  0  1
  257  90   0   0   0  13  0  0
  258 3170   0   3   4   0  0  0
  259  90   0   0   0  12  0  0
  260 242   0   0   0   0  0  0
  261 408   3   0   0   1  0  1
  262  90   0   0   0  13  0  0
  263 3170   0   3   4   0  0  0
  264  90   0   0   0  12  0  0
  265 242   0   0   0   0  0  0
  266 408   4   0   0   1  0  1
  267  90   0   0   0  13  0  0
  268 3170   0   3   4   0  0  0
  269  90   0   0   0  12  0  0
  270 242   0   0   0   0  0  0
  271 408   5   0   0   1  0  1
  272  90   0   0   0  13  0  0
  273 3170   0   3   4   0  0  0
  274  90   0   0   0  12  0  0
  275 242   0   0   0   0  0  0
  276 408   6   0   0   1  0  1
  277  90   0   0   0  13  0  0
  278 3170   0   3   4   0  0  0
  279  90   0   0   0  12  0  0
  280 242   0   0   0   0  0  0
  281 408   7   0   0   1  0  1
  282  90   0   0   0  13  0  0
  283 3170   0   3   4   0  0  0
  284  90   0   0   0  12  0  0
  285 242   0   0   0   0  0  0
  286 408   8   0   0   1  0  1
  287  90   0   0   0  13  0  0
  288 3170   0   3   4   0  0  0
  289  90   0   0   0  12  0  0
  290 242   0   0   0   0  0  0
  291 408   9   0   0   1  0  1
  292  90   0   0   0  13  0  0
  293 3170   0   3   4   0  0  0
  294  90   0   0   0  12  0  0
  295 242   0   0   0   0  0  0
  296 408  10   0   0   1  0  1
  297  90   0   0   0  13  0  0
  298 3170   0   3   4   0  0  0
  299  90   0   0   0  12  0  0
  300 242   0   0   0   0  0  0
[RF]
1      81.5231 1 2 0 540 0 0
2      81.5231 1 2 0 540 0 0.314159
3      81.5231 1 2 0 540 0 1.25664
4      81.5231 1 2 0 540 0 2.82743
5      81.5231 1 2 0 540 0 5.02655
6      81.5231 1 2 0 540 0 7.85398
7      81.5231 1 2 0 540 0 11.3097
8      81.5231 1 2 0 540 0 15.3938
9      81.5231 1 2 0 540 0 20.1062
10      81.5231 1 2 0 540 0 25.4469

# Format of arbitrary gradients:
#   time_shape_id of 0 means default timing (stepping with grad_raster starting at 1/2 of grad_raster)
# id amplitude amp_shape_id time_shape_id delay
# ..      Hz/m       ..         ..          us
[GRADIENTS]
1      -405333 3 4 0
3       637552 5 0 100
4       632517 6 0 100
14      -632517 6 0 100
15      -637552 7 0 100

# Format of trapezoid gradients:
# id amplitude rise flat fall delay
# ..      Hz/m   us   us   us    us
[TRAP]
 2      -326797 390  120 390   0
 5       326797 390  120 390   0
 6      -254176 390  120 390   0
 7       254176 390  120 390   0
 8      -181554 390  120 390   0
 9       181554 390  120 390   0
10      -108932 390  120 390   0
11       108932 390  120 390   0
12     -36310.8 390  120 390   0
13      36310.8 390  120 390   0

# Format of ADC events:
# id num dwell delay freq phase
# ..  ..    ns    us   Hz   rad
[ADC]
1 2894 10000 100 0 0
2 2894 10000 100 0 0.314159
3 2894 10000 100 0 1.25664
4 2894 10000 100 0 2.82743
5 2894 10000 100 0 5.02655
6 2894 10000 100 0 7.85398
7 2894 10000 100 0 11.3097
8 2894 10000 100 0 15.3938
9 2894 10000 100 0 20.1062
10 2894 10000 100 0 25.4469

# Format of extension lists:
# id type ref next_id
# next_id of 0 terminates the list
# Extension list is followed by extension specifications
[EXTENSIONS]
1 1 1 0
2 1 2 0
3 1 3 0
4 1 4 0
5 1 5 0
6 1 6 0
7 1 7 0
8 1 8 0

# Extension specification for setting labels:
# id set labelstring
extension LABELSET 1
1 2 TRID
2 3 TRID
3 4 TRID
4 5 TRID
5 6 TRID
6 7 TRID
7 8 TRID
8 9 TRID

# Sequence Shapes
[SHAPES]

shape_id 1
num_samples 3000
0.00477656173
0.00490780587
0.00502941121
0.00515624131
0.00528135611
0.00540880744
0.00553592556
0.00566459777
0.00579341038
0.00592345504
0.00605385548
0.00618532155
0.00631725684
0.00645016016
0.006583599
0.00671794127
0.00685285946
0.00698863631
0.00712501398
0.00726221657
0.00740003584
0.00753865364
0.00767789784
0.00781791835
0.00795857001
0.00809997949
0.00824202263
0.00838480618
0.00852822307
0.00867236531
0.00881713988
0.00896262484
0.00910873868
0.0092555499
0.00940298581
0.00955110508
0.00969984342
0.00984925345
0.00999927589
0.0101499585
0.0103012457
0.0104531803
0.0106057124
0.0107588798
0.0109126375
0.0110670172
0.0112219777
0.011377549
0.011533693
0.0116904342
0.0118477387
0.0120056281
0.01216407
0.0123230851
0.0124826425
0.0126427609
0.0128034096
0.0129646066
0.0131263234
0.013288575
0.0134513347
0.0136146166
0.0137783949
0.0139426818
0.0141074528
0.0142727188
0.0144384562
0.0146046745
0.0147713522
0.0149384965
0.0151060875
0.015274131
0.0154426068
0.0156115215
0.0157808538
0.0159506098
0.016120772
0.0162913423
0.0164623031
0.0166336573
0.0168053872
0.0169774957
0.0171499655
0.0173227981
0.0174959758
0.0176695025
0.0178433571
0.0180175435
0.0181920442
0.0183668605
0.0185419745
0.0187173875
0.0188930815
0.0190690589
0.0192453015
0.0194218074
0.0195985629
0.0197755659
0.0199528023
0.0201302675
0.0203079467
0.0204858397
0.0206639279
0.0208422132
0.021020675
0.0211993149
0.0213781148
0.0215570734
0.0217361743
0.0219154147
0.0220947805
0.0222742677
0.0224538583
0.0226335503
0.0228133308
0.0229931926
0.0231731219
0.0233531152
0.0235331554
0.0237132375
0.0238933487
0.0240734841
0.0242536263
0.0244337726
0.0246139067
0.0247940243
0.0249741097
0.0251541575
0.0253341502
0.025514086
0.0256939491
0.0258737298
0.0260534185
0.0262330065
0.026412478
0.0265918268
0.0267710394
0.0269501079
0.0271290181
0.027307762
0.0274863252
0.0276647009
0.0278428756
0.0280208386
0.0281985789
0.0283760859
0.028553346
0.0287303517
0.0289070875
0.029083548
0.0292597134
0.0294355805
0.0296111317
0.0297863588
0.029961249
0.0301357923
0.0303099732
0.0304837873
0.0306572123
0.0308302466
0.031002871
0.0311750793
0.0313468547
0.0315181891
0.0316890684
0.0318594828
0.0320294155
0.0321988592
0.0323678003
0.0325362263
0.0327041213
0.0328714848
0.0330382902
0.033204534
0.0333702008
0.0335352802
0.033699758
0.033863621
0.0340268596
0.0341894592
0.0343514087
0.0345126927
0.0346733029
0.0348332247
0.034992444
0.0351509477
0.0353087301
0.0354657672
0.0356220555
0.0357775812
0.0359323238
0.0360862793
0.0362394314
0.0363917684
0.0365432778
0.0366939436
0.0368437535
0.0369926965
0.0371407603
0.0372879304
0.0374341948
0.0375795349
0.0377239506
0.0378674157
0.0380099244
0.0381514594
0.0382920099
0.0384315646
0.0385701087
0.038707628
0.0388441127
0.0389795434
0.039113914
0.0392472063
0.0393794077
0.0395105101
0.0396404941
0.0397693518
0.0398970633
0.0400236218
0.0401490125
0.0402732204
0.0403962338
0.0405180364
0.0406386173
0.0407579683
0.0408760687
0.0409929077
0.0411084744
0.041222754
0.0413357302
0.0414473938
0.0415577313
0.0416667291
0.0417743749
0.0418806484
0.041985548
0.042089052
0.0421911524
0.0422918321
0.0423910767
0.0424888822
0.0425852261
0.0426800993
0.0427734872
0.0428653771
0.0429557572
0.0430446123
0.0431319333
0.0432176999
0.043301907
0.0433845368
0.0434655801
0.043545021
0.0436228492
0.0436990481
0.0437736044
0.0438465113
0.0439177525
0.0439873123
0.0440551813
0.0441213477
0.0441857977
0.0442485152
0.0443094949
0.044368715
0.044426171
0.044481845
0.0445357276
0.0445878031
0.0446380624
0.0446864926
0.0447330779
0.044777813
0.0448206755
0.0448616634
0.0449007595
0.0449379504
0.0449732242
0.0450065714
0.0450379777
0.0450674304
0.0450949203
0.0451204369
0.0451439596
0.0451654864
0.0451849981
0.0452024879
0.0452179427
0.0452313502
0.0452426988
0.0452519786
0.0452591754
0.0452642784
0.0452672776
0.0452681598
0.0452669175
0.0452635329
0.0452580001
0.0452503027
0.045240437
0.0452283873
0.0452141447
0.0451976926
0.045179031
0.0451581393
0.0451350068
0.0451096328
0.0450819971
0.0450520911
0.0450199056
0.0449854302
0.0449486569
0.0449095674
0.0448681597
0.0448244216
0.0447783418
0.0447299079
0.0446791181
0.0446259539
0.0445704087
0.044512476
0.0444521407
0.0443893958
0.0443242357
0.0442566402
0.0441866114
0.0441141354
0.0440392029
0.0439618042
0.0438819293
0.0437995745
0.0437147286
0.043627377
0.043537519
0.0434451441
0.0433502437
0.0432528045
0.0431528244
0.0430502902
0.0429452015
0.0428375411
0.0427273099
0.0426144906
0.0424990829
0.0423810737
0.0422604604
0.0421372314
0.0420113831
0.0418829049
0.0417517919
0.0416180353
0.0414816275
0.0413425661
0.0412008424
0.0410564429
0.0409093698
0.0407596128
0.0406071687
0.0404520252
0.0402941819
0.0401336285
0.0399703644
0.0398043774
0.0396356652
0.0394642227
0.0392900441
0.0391131201
0.038933453
0.0387510288
0.0385658492
0.0383779058
0.038187193
0.0379937107
0.0377974524
0.0375984107
0.0373965801
0.0371919651
0.0369845546
0.0367743431
0.0365613314
0.0363455111
0.0361268812
0.0359054424
0.0356811831
0.0354541038
0.0352242036
0.0349914743
0.0347559157
0.0345175282
0.0342763063
0.0340322431
0.0337853444
0.0335356004
0.0332830144
0.0330275804
0.0327693002
0.0325081685
0.0322441868
0.0319773499
0.0317076608
0.0314351164
0.0311597121
0.0308814505
0.0306003333
0.0303163542
0.0300295166
0.0297398181
0.0294472597
0.0291518391
0.0288535593
0.0285524166
0.0282484162
0.027941553
0.0276318309
0.0273192501
0.0270038121
0.0266855155
0.0263643653
0.0260403583
0.0257134985
0.0253837871
0.0250512244
0.0247158143
0.0243775578
0.0240364573
0.023692514
0.0233457313
0.0229961116
0.0226436579
0.0222883726
0.0219302591
0.0215693191
0.0212055584
0.0208389796
0.020469584
0.0200973786
0.0197223646
0.0193445489
0.0189639335
0.0185805229
0.0181943222
0.0178053368
0.0174135699
0.0170190289
0.0166217166
0.0162216392
0.0158188003
0.0154132086
0.0150048683
0.0145937864
0.0141799668
0.0137634174
0.0133441441
0.0129221543
0.0124974535
0.0120700491
0.0116399472
0.0112071574
0.0107716845
0.0103335367
0.00989272268
0.00944925004
0.00900312538
0.00855435783
0.00810295553
0.00764892754
0.00719228127
0.0067330271
0.00627117233
0.00580672755
0.0053397008
0.0048701025
0.00439794157
0.00392322829
0.00344597231
0.00296618408
0.00248387317
0.00199905085
0.00151172678
0.00102191277
0.000529618666
3.4856693e-05
0.000462363109
0.000962028044
0.00146412784
0.00196864938
0.00247558218
0.00298491287
0.00349663037
0.0040107209
0.00452717369
0.00504597387
0.00556711054
0.00609056905
0.00661633722
0.00714440085
0.00767474752
0.00820736183
0.00874223137
0.00927934132
0.00981867761
0.0103602263
0.0109039713
0.0114498997
0.0119979959
0.0125482443
0.0131006307
0.0136551384
0.0142117538
0.0147704578
0.0153312392
0.0158940779
0.0164589588
0.0170258668
0.0175947852
0.0181656941
0.0187385812
0.0193134259
0.0198902127
0.0204689238
0.0210495421
0.0216320475
0.0222164273
0.0228026582
0.0233907245
0.0239806069
0.0245722885
0.0251657495
0.0257609711
0.0263579321
0.0269566185
0.0275570044
0.0281590775
0.0287628117
0.0293681916
0.0299751933
0.0305838018
0.0311939893
0.0318057445
0.0324190392
0.0330338567
0.0336501762
0.034267972
0.0348872269
0.035507922
0.0361300303
0.0367535324
0.0373784037
0.0380046261
0.0386321769
0.0392610308
0.0398911676
0.0405225631
0.0411551979
0.0417890446
0.0424240845
0.0430602909
0.0436976418
0.0443361113
0.0449756791
0.0456163192
0.046258004
0.0469007206
0.0475444335
0.0481891227
0.0488347592
0.0494813259
0.0501287939
0.0507771359
0.051426328
0.052076347
0.0527271667
0.0533787591
0.0540310979
0.0546841603
0.0553379203
0.0559923492
0.0566474224
0.0573031117
0.05795939
0.0586162353
0.0592736127
0.0599315011
0.0605898716
0.0612486979
0.0619079463
0.0625676021
0.0632276228
0.0638879874
0.0645486712
0.0652096394
0.0658708711
0.0665323231
0.0671939922
0.0678558223
0.0685178002
0.0691798963
0.0698420761
0.0705043125
0.0711665724
0.0718288348
0.0724910663
0.0731532371
0.0738153111
0.0744772737
0.0751390756
0.0758006984
0.0764621146
0.0771232767
0.0777841753
0.0784447701
0.079105024
0.079764913
0.080424409
0.0810834751
0.0817420823
0.0824001947
0.0830577937
0.083714828
0.084371285
0.0850271244
0.0856823101
0.0863368137
0.0869906049
0.0876436534
0.0882959158
0.0889473722
0.0895979906
0.0902477217
0.0908965486
0.0915444356
0.0921913417
0.0928372442
0.0934821034
0.0941258925
0.0947685679
0.0954101042
0.0960504708
0.0966896178
0.0973275294
0.0979641654
0.0985994825
0.0992334676
0.0998660689
0.100497254
0.101126993
0.101755253
0.102382001
0.103007197
0.103630802
0.104252798
0.104873131
0.10549178
0.106108702
0.106723867
0.107337237
0.107948781
0.108558452
0.109166235
0.109772074
0.110375946
0.110977816
0.11157764
0.112175389
0.112771026
0.113364519
0.11395582
0.114544907
0.11513174
0.115716278
0.116298487
0.116878337
0.117455784
0.118030795
0.118603339
0.119173367
0.119740864
0.120305763
0.120868054
0.121427694
0.121984643
0.122538861
0.123090325
0.123638971
0.124184803
0.124727751
0.125267789
0.12580488
0.126338995
0.126870086
0.127398131
0.127923069
0.128444881
0.128963533
0.129478965
0.129991176
0.130500107
0.131005717
0.131507971
0.132006834
0.132502291
0.132994272
0.13348275
0.133967694
0.134449069
0.134926833
0.135400956
0.135871388
0.136338092
0.136801044
0.137260201
0.137715532
0.138166987
0.13861453
0.139058138
0.139497758
0.139933362
0.140364927
0.140792373
0.141215707
0.141634875
0.142049839
0.14246056
0.142867001
0.143269133
0.143666922
0.144060319
0.144449289
0.144833802
0.145213825
0.145589307
0.145960215
0.146326519
0.146688186
0.147045162
0.147397427
0.147744942
0.148087656
0.148425549
0.148758579
0.149086708
0.149409911
0.149728143
0.150041351
0.150349524
0.150652623
0.150950596
0.151243425
0.151531063
0.15181348
0.152090635
0.152362492
0.152629022
0.152890191
0.153145948
0.153396268
0.153641124
0.153880466
0.154114265
0.154342495
0.154565089
0.154782051
0.154993324
0.155198884
0.155398687
0.155592698
0.155780887
0.155963227
0.156139674
0.15631018
0.156474743
0.156633306
0.156785849
0.156932319
0.157072702
0.157206949
0.157335031
0.157456911
0.15757257
0.157681959
0.157785058
0.157881828
0.157972225
0.158056234
0.158133797
0.158204916
0.158269536
0.158327628
0.15837916
0.158424105
0.158462424
0.158494084
0.158519068
0.15853732
0.158548832
0.158553545
0.158551456
0.158542525
0.158526717
0.158504005
0.158474348
0.158437725
0.158394114
0.158343463
0.158285759
0.158220956
0.158149044
0.158069969
0.157983738
0.157890285
0.157789604
0.157681648
0.157566401
0.157443823
0.157313891
0.15717658
0.157031864
0.156879707
0.156720089
0.156552967
0.156378334
0.156196149
0.156006388
0.155809021
0.155604014
0.155391359
0.155171026
0.15494297
0.154707177
0.154463621
0.154212282
0.153953133
0.153686127
0.153411259
0.153128506
0.152837832
0.152539224
0.152232644
0.151918074
0.151595494
0.151264868
0.150926186
0.150579423
0.150224533
0.149861526
0.149490345
0.149110999
0.148723452
0.14832768
0.147923657
0.147511365
0.147090785
0.146661903
0.146224677
0.145779096
0.145325135
0.144862794
0.144392028
0.143912823
0.143425163
0.142929026
0.142424389
0.141911235
0.141389558
0.140859317
0.140320504
0.139773105
0.139217092
0.138652452
0.138079155
0.137497217
0.136906584
0.136307257
0.135699217
0.135082437
0.134456919
0.133822634
0.133179565
0.132527717
0.131867046
0.131197542
0.130519211
0.129832026
0.129135961
0.128431017
0.127717173
0.126994416
0.126262735
0.125522103
0.124772538
0.12401401
0.123246496
0.122469993
0.121684494
0.120889982
0.120086445
0.119273877
0.118452257
0.117621592
0.116781853
0.11593304
0.115075135
0.114208143
0.113332041
0.112446831
0.111552496
0.110649027
0.10973642
0.10881467
0.107883761
0.106943689
0.10599445
0.105036037
0.104068441
0.103091656
0.102105676
0.1011105
0.10010611
0.0990925184
0.0980697059
0.0970376786
0.0959964263
0.0949459461
0.0938862289
0.0928172809
0.0917390944
0.0906516661
0.0895549987
0.0884490816
0.0873339144
0.086209503
0.0850758335
0.0839329212
0.0827807537
0.0816193311
0.0804486553
0.0792687297
0.0780795487
0.0768811198
0.0756734331
0.0744565042
0.0732303207
0.071994898
0.0707502262
0.0694963155
0.0682331673
0.0669607812
0.0656791611
0.0643883141
0.0630882478
0.0617789538
0.0604604492
0.0591327305
0.0577958127
0.0564496873
0.0550943723
0.0537298687
0.0523561816
0.0509733246
0.0495812955
0.0481801082
0.0467697681
0.0453502818
0.0439216614
0.0424839099
0.0410370433
0.0395810654
0.0381159863
0.0366418184
0.0351585686
0.0336662503
0.0321648728
0.0306544479
0.0291349841
0.0276064978
0.0260689966
0.0245224959
0.0229670078
0.0214025428
0.019829116
0.0182467425
0.0166554325
0.0150552039
0.013446068
0.0118280424
0.0102011394
0.00856537776
0.00692076985
0.00526733371
0.00360508482
0.00193404119
0.000254217695
0.00143436626
0.00313169511
0.00483774854
0.00655251092
0.00827596173
0.0100080832
0.0117488545
0.0134982594
0.0152562745
0.0170228837
0.0187980611
0.020581791
0.0223740487
0.0241748179
0.0259840703
0.027801789
0.0296279502
0.0314625307
0.0333055062
0.0351568601
0.0370165568
0.0388845868
0.0407609154
0.0426455229
0.0445383805
0.0464394686
0.0483487581
0.0502662248
0.0521918431
0.0541255831
0.056067424
0.0580173361
0.0599752908
0.061941258
0.0639152195
0.0658971433
0.0678869913
0.069884744
0.0718903704
0.0739038475
0.0759251336
0.0779542068
0.0799910346
0.0820355943
0.0840878319
0.0861477439
0.0882152848
0.0902904225
0.0923731252
0.0944633656
0.0965611109
0.0986663199
0.100778969
0.102899017
0.10502643
0.107161185
0.109303237
0.111452555
0.113609101
0.115772847
0.117943753
0.120121779
0.122306888
0.124499057
0.126698232
0.128904393
0.131117493
0.133337494
0.135564353
0.137798041
0.140038518
0.14228576
0.14453968
0.146800297
0.149067534
0.151341368
0.153621746
0.155908646
0.158202014
0.160501806
0.162807992
0.165120518
0.167439357
0.169764458
0.172095779
0.174433275
0.176776908
0.179126642
0.181482409
0.18384419
0.186211928
0.188585584
0.190965121
0.19335049
0.195741628
0.198138514
0.200541092
0.202949317
0.205363136
0.20778252
0.210207398
0.21263775
0.215073518
0.217514643
0.219961104
0.222412827
0.224869774
0.227331905
0.229799156
0.232271501
0.234748861
0.237231205
0.239718486
0.242210648
0.244707648
0.247209422
0.249715936
0.25222711
0.254742953
0.257263361
0.259788277
0.262317692
0.264851524
0.267389743
0.269932292
0.272479077
0.275030087
0.277585283
0.280144568
0.282707917
0.28527528
0.287846597
0.290421811
0.293000858
0.2955837
0.298170279
0.300760521
0.303354406
0.305951853
0.308552818
0.311157242
0.313765092
0.316376255
0.318990725
0.321608429
0.324229337
0.326853341
0.329480424
0.33211052
0.33474354
0.337379476
0.340018263
0.342659817
0.345304091
0.347951028
0.350600593
0.353252675
0.355907269
0.358564288
0.361223674
0.363885362
0.366549348
0.369215496
0.371883779
0.374554137
0.377226522
0.379900867
0.382577106
0.38525516
0.387935019
0.390616575
0.39329979
0.395984598
0.398670937
0.401358763
0.404047973
0.406738557
0.409430418
0.412123497
0.414817773
0.417513128
0.420209516
0.4229069
0.425605194
0.428304342
0.431004295
0.433704962
0.436406299
0.439108235
0.441810725
0.444513682
0.447217051
0.44992078
0.452624793
0.455329061
0.458033458
0.460737952
0.463442487
0.466147
0.468851408
0.471555696
0.474259715
0.476963481
0.479666879
0.482369859
0.485072403
0.487774364
0.490475726
0.493176436
0.495876385
0.498575569
0.501273843
0.503971244
0.506667608
0.509362927
0.512057123
0.514750103
0.517441836
0.520132304
0.522821315
0.525508898
0.528194987
0.530879452
0.533562329
0.536243467
0.538922852
0.541600375
0.544275956
0.546949631
0.549621227
0.552290768
0.55495809
0.557623193
0.560285979
0.56294641
0.565604426
0.568259926
0.570912859
0.573563169
0.576210787
0.578855671
0.581497718
0.584136838
0.586772998
0.589406204
0.5920363
0.59466319
0.597286909
0.599907372
0.602524394
0.605138055
0.607748263
0.610354894
0.612957882
0.615557231
0.618152824
0.620744598
0.623332538
0.625916476
0.628496479
0.631072373
0.633644153
0.636211741
0.638775045
0.641334011
0.643888581
0.646438694
0.64898429
0.651525319
0.65406168
0.656593311
0.659120184
0.661642158
0.664159248
0.66667139
0.669178442
0.671680374
0.674177214
0.676668757
0.679155035
0.681635989
0.684111449
0.686581443
0.689045879
0.691504712
0.693957858
0.696405213
0.69884684
0.701282531
0.703712381
0.706136174
0.708553878
0.71096554
0.713370976
0.715770162
0.71816304
0.72054952
0.722929627
0.725303224
0.727670244
0.730030639
0.732384401
0.734731354
0.737071567
0.739404872
0.74173125
0.744050668
0.746363034
0.74866827
0.750966387
0.753257268
0.755540817
0.757817026
0.760085832
0.762347154
0.764601002
0.766847259
0.769085837
0.771316686
0.773539758
0.77575507
0.777962475
0.780161956
0.782353436
0.784536831
0.786712089
0.788879243
0.79103812
0.793188743
0.795330972
0.797464862
0.799590255
0.801707121
0.803815439
0.805915126
0.808006159
0.8100884
0.812161856
0.814226495
0.81628222
0.818328959
0.820366714
0.822395401
0.824414947
0.826425283
0.828426469
0.830418291
0.832400853
0.834373947
0.836337623
0.838291825
0.840236463
0.842171476
0.844096831
0.846012529
0.847918438
0.849814551
0.851700832
0.85357712
0.855443506
0.857299862
0.85914617
0.860982343
0.862808365
0.864624194
0.866429714
0.868224987
0.870009838
0.871784372
0.873548362
0.875301893
0.877044856
0.878777252
0.880498991
0.882210098
0.883910367
0.885599918
0.887278613
0.888946413
0.890603342
0.892249284
0.893884199
0.895508123
0.897120863
0.89872252
0.900312979
0.901892177
0.903460161
0.905016792
0.906562057
0.908095954
0.909618368
0.911129333
0.912628756
0.914116657
0.915592863
0.917057513
0.918510412
0.919951651
0.92138107
0.922798709
0.924204507
0.92559841
0.926980389
0.928350419
0.929708442
0.931054398
0.932388353
0.933710173
0.935019869
0.936317323
0.937602658
0.938875652
0.940136403
0.941384848
0.9426209
0.943844629
0.945055869
0.946254654
0.947441019
0.948614806
0.949776038
0.950924681
0.952060755
0.953184126
0.954294873
0.955392884
0.956478133
0.957550665
0.958610354
0.959657236
0.960691216
0.96171236
0.96272059
0.963715882
0.964698154
0.965667483
0.966623734
0.967566946
0.968497139
0.969414171
0.970318073
0.971208858
0.972086457
0.972950901
0.973802048
0.974639982
0.975464608
0.976275966
0.977074028
